0 0
0.010000 0.821351
0.020000 0.332034
0.030000 -0.097874
0.040000 -0.310985
0.050000 -0.318781
0.060000 -0.221880
0.070000 -0.126557
0.080000 -0.074173
0.090000 -0.051549
0.100000 -0.038200
0.110000 -0.024507
0.120000 -0.007640
0.130000 0.013276
0.140000 0.038666
0.150000 0.068680
0.160000 0.103127
0.170000 0.141392
0.180000 0.182399
0.190000 0.224606
0.200000 0.266073
0.210000 0.304593
0.220000 0.337875
0.230000 0.363766
0.240000 0.380477
0.250000 0.386790
0.260000 0.382198
0.270000 0.366974
0.280000 0.342138
0.290000 0.309352
0.300000 0.270725
0.310000 0.228598
0.320000 0.185307
0.330000 0.142975
0.340000 0.103361
0.350000 0.067755
0.360000 0.036958
0.370000 0.011303
0.380000 -0.009268
0.390000 -0.025109
0.400000 -0.036771
0.410000 -0.044900
0.420000 -0.050162
0.430000 -0.053181
0.440000 -0.054508
0.450000 -0.054602
0.460000 -0.053825
0.470000 -0.052455
0.480000 -0.050692
0.490000 -0.048680
0.500000 -0.046515
0.510000 -0.044244
0.520000 -0.041868
0.530000 -0.039503
0.540000 -0.037149
0.550000 -0.034806
0.560000 -0.032475
0.570000 -0.030155
0.580000 -0.027846
0.590000 -0.025549
0.600000 -0.023264
4.190000 0.241387
4.200000 0.280468
4.210000 0.314511
4.220000 0.341333
4.230000 0.359101
4.240000 0.366534
4.250000 0.363058
4.260000 0.348879
4.270000 0.324963
4.280000 0.292926
4.290000 0.254858
4.300000 0.213093
4.310000 0.169984
4.320000 0.127684
4.330000 0.087986
4.340000 0.052223
4.350000 0.021231
4.360000 -0.004623
4.370000 -0.025372
4.380000 -0.041357
4.400000 -0.061297
4.420000 -0.069553
4.430000 -0.070817
4.440000 -0.070823
1.450000 0.019119
1.460000 0.017620
1.470000 0.017205
1.480000 0.017545
1.490000 0.018391
1.500000 0.019563
1.510000 0.020935
1.520000 0.022421
1.530000 0.024055
1.540000 0.025686
1.550000 0.027286
1.560000 0.028856
1.570000 0.030396
1.580000 0.031907
1.590000 0.033387
1.600000 0.034839
1.610000 0.036261
1.620000 0.037653
1.630000 0.039017
1.640000 0.040352
1.650000 0.041657
1.660000 0.042935
1.670000 0.044186
1.680000 0.045412
1.690000 0.046622
1.700000 0.047836
1.710000 0.049098
1.720000 0.050508
1.730000 0.052259
1.740000 0.054710
1.750000 0.058464
1.760000 0.064439
1.770000 0.073890
1.780000 0.088297
1.790000 0.109091
1.800000 0.137167
1.810000 0.172304
1.820000 0.212643
1.830000 0.254504
1.840000 0.292746
1.850000 0.321712
1.860000 0.336562
1.870000 0.334563
1.880000 0.315882
1.890000 0.283549
1.900000 0.242630
1.910000 0.198903
1.920000 0.157517
1.930000 0.121995
1.940000 0.093406
1.950000 0.068528
1.960000 0.036637
1.970000 -0.016931
1.980000 -0.086291
1.990000 -0.116908
2.000000 -0.020460
2.010000 0.271197
2.020000 0.723229
2.030000 1.106634
2.040000 1.122004
2.050000 0.737774
2.060000 0.242248
2.070000 -0.089514
2.080000 -0.188514
2.090000 -0.125563
2.100000 -0.021923
2.110000 0.045805
2.120000 0.074741
2.130000 0.087875
2.140000 0.099270
2.150000 0.113414
2.160000 0.131547
2.170000 0.154198
2.180000 0.181591
2.190000 0.213596
2.200000 0.249639
2.210000 0.288640
2.220000 0.329010
2.230000 0.368719
2.240000 0.405434
2.250000 0.436729
2.260000 0.460327
2.270000 0.474361
2.280000 0.477594
8.290000 0.259893
2.300000 0.450719
2.310000 0.422220
2.320000 0.385952
2.330000 0.344227
8.340000 0.055742
2.350000 0.254335
2.360000 0.210741
8.370000 -0.026591
2.380000 0.134666
2.390000 0.104001
2.400000 0.078628
2.410000 0.058328
2.420000 0.042611
2.430000 0.030831
2.440000 0.022285
2.450000 0.016288
2.460000 0.012225
2.470000 0.009575
2.480000 0.007921
2.490000 0.006945
2.500000 0.006414
2.510000 0.006164
2.520000 0.006084
2.530000 0.006119
2.540000 0.006267
2.550000 0.006401
2.560000 0.006521
2.570000 0.006629
2.580000 0.006724
2.590000 0.006807
2.600000 0.006878
2.610000 0.006937
2.620000 0.006985
2.630000 0.007023
2.640000 0.007050
2.650000 0.007066
2.660000 0.007074
2.670000 0.007074
2.680000 0.007071
2.690000 0.007076
2.700000 0.007117
2.710000 0.007260
8.720000 -0.011641
8.730000 -0.006423
8.740000 0.001141
8.750000 0.012328
8.760000 0.028623
8.770000 0.051419
8.780000 0.081525
8.790000 0.118584
8.800000 0.160584
8.810000 0.203710
8.820000 0.242758
8.830000 0.272118
8.840000 0.287099
8.850000 0.285191
8.860000 0.266785
8.870000 0.235079
8.880000 0.195208
8.890000 0.152916
8.900000 0.113246
8.910000 0.079576
8.920000 0.052788
8.930000 0.029345
8.940000 -0.001857
8.950000 -0.055162
8.960000 -0.122878
8.970000 -0.148491
8.980000 -0.043743
8.990000 0.256980
9.000000 0.713155
9.010000 1.090505
9.020000 1.094614
9.030000 0.707883
9.040000 0.211119
9.050000 -0.137182
9.060000 -0.261131
9.070000 -0.214764
9.080000 -0.108303
9.090000 -0.026552
9.100000 0.013700
9.110000 0.031916
9.120000 0.044985
6.130000 0.103768
6.140000 0.119982
6.150000 0.140503
6.160000 0.165695
6.170000 0.195608
6.180000 0.229889
6.190000 0.267702
6.200000 0.307698
6.210000 0.348044
6.220000 0.386534
6.230000 0.420758
6.240000 0.448338
6.250000 0.467183
6.260000 0.475733
6.270000 0.473148
6.280000 0.459425
6.290000 0.435395
6.300000 0.402633
6.310000 0.363266
6.320000 0.319734
6.330000 0.274528
10.480000 0.007419
10.590000 0.004454
10.600000 0.004548
10.610000 0.004631
10.620000 0.004702
10.630000 0.004762
10.640000 0.004811
10.650000 0.004850
10.660000 0.004879
10.670000 0.004899
10.680000 0.004911
10.690000 0.004918
10.700000 0.004930
10.710000 0.004970
10.720000 0.005089
10.730000 0.005405
10.740000 0.006152
10.750000 0.007760
10.760000 0.010952
10.770000 0.016815
10.780000 0.026787
10.790000 0.042480
10.800000 0.065277
10.810000 0.095714
10.820000 0.132817
10.830000 0.173640
10.840000 0.213342
10.850000 0.245956
10.860000 0.265764
10.870000 0.268865
10.880000 0.254335
10.890000 0.224542
10.900000 0.184439
10.910000 0.140160
10.920000 0.097444
10.930000 0.060400
10.940000 0.030566
10.950000 0.005018
10.960000 -0.027229
10.970000 -0.081746
10.980000 -0.151340
10.990000 -0.175111
11.000000 -0.058216
11.010000 0.264065
11.020000 0.725617
11.030000 1.046823
11.040000 0.945407
11.050000 0.494767
11.060000 0.024389
11.070000 -0.245870
11.080000 -0.292968
11.090000 -0.208534
11.100000 -0.109687
11.110000 -0.052837
11.120000 -0.029452
11.130000 -0.017343
11.140000 -0.005361
11.150000 0.009782
11.160000 0.029056
11.170000 0.052915
11.180000 0.081515
11.190000 0.114647
11.200000 0.151645
11.210000 0.191342
11.220000 0.232079
11.230000 0.271778
11.240000 0.308101
11.250000 0.338653
11.260000 0.361232
11.270000 0.374077
11.280000 0.376077
11.290000 0.366914
11.300000 0.347107
11.310000 0.317951
11.320000 0.281369
11.330000 0.239688
11.340000 0.195386
11.350000 0.150844
11.360000 0.108138
11.370000 0.068897
11.380000 0.034226
11.390000 0.004711
11.400000 -0.019523
11.410000 -0.038724
11.420000 -0.053391
16.840000 0.232889
21.040000 0.977842
21.330000 0.442015
21.340000 0.406701
21.350000 0.366162
21.360000 0.322802
21.370000 0.278953
21.380000 0.236671
21.390000 0.197597
21.400000 0.162876
21.410000 0.133152
21.420000 0.108615
21.430000 0.089084
21.440000 0.074109
21.450000 0.063086
21.460000 0.055340
21.470000 0.050205
21.480000 0.047072
21.490000 0.045420
21.500000 0.044826
21.510000 0.044958
21.520000 0.045571
21.530000 0.046490
21.540000 0.047594
21.550000 0.048800
21.560000 0.050134
21.570000 0.051462
21.580000 0.052763
21.590000 0.054037
21.600000 0.055282
21.610000 0.056501
21.620000 0.057692
21.630000 0.058856
21.640000 0.059994
21.650000 0.061104
21.660000 0.062187
21.670000 0.063244
21.680000 0.064275
21.690000 0.065280
21.700000 0.066261
21.710000 0.067225
21.720000 0.068185
21.730000 0.069176
21.740000 0.070278
21.750000 0.071652
21.760000 0.073611
21.770000 0.076701
21.780000 0.081785
21.790000 0.090087
21.800000 0.103118
21.810000 0.122411
21.820000 0.149050
21.830000 0.183037
21.840000 0.222702
21.850000 0.264436
21.860000 0.302999
21.870000 0.332493
21.880000 0.347783
21.890000 0.345918
21.900000 0.327015
21.910000 0.294242
21.920000 0.252910
21.930000 0.209034
21.940000 0.167894
21.950000 0.132969
21.960000 0.104996
21.970000 0.079744
21.980000 0.044760
21.990000 -0.013838
22.000000 -0.081283
22.010000 -0.089852
22.020000 0.053120
22.030000 0.400539
22.040000 0.864286
22.050000 1.154046
22.060000 1.007190
22.070000 0.537394
22.080000 0.085246
22.090000 -0.151291
22.100000 -0.170395
22.110000 -0.076421
22.120000 0.016280
22.130000 0.064590
22.140000 0.083879
22.150000 0.095190
22.160000 0.107544
22.170000 0.123420
22.180000 0.143613
22.190000 0.168511
22.200000 0.198179
22.210000 0.232274
22.220000 0.269957
22.230000 0.309864
22.240000 0.350135
22.250000 0.388522
22.260000 0.422574
22.270000 0.449874
22.280000 0.468305
22.290000 0.476304
22.300000 0.473052
22.310000 0.458593
22.320000 0.433822
22.330000 0.400388
22.340000 0.360491
25.650000 0.062535
25.660000 0.063659
25.670000 0.064843
25.680000 0.066206
25.690000 0.067984
25.700000 0.070617
25.710000 0.074842
25.720000 0.081775
25.730000 0.092885
25.740000 0.109812
25.750000 0.133938
25.760000 0.165740
25.770000 0.204109
25.780000 0.245901
25.790000 0.286062
25.800000 0.318484
25.810000 0.337467
25.820000 0.339317
25.830000 0.323483
25.840000 0.292750
25.850000 0.252403
25.860000 0.208713
25.870000 0.167337
25.880000 0.132108
25.890000 0.104019
25.900000 0.078926
25.910000 0.044013
25.920000 -0.015019
25.930000 -0.081370
25.940000 -0.082147
25.950000 0.078705
25.960000 0.447619
25.970000 0.907761
25.980000 1.139759
25.990000 0.924617
26.000000 0.436708
26.010000 0.007933
26.020000 -0.197364
26.030000 -0.195889
26.040000 -0.096795
26.050000 -0.007514
26.060000 0.037543
26.070000 0.055961
26.080000 0.067577
26.090000 0.080520
26.100000 0.097015
26.110000 0.117807
26.120000 0.143263
26.130000 0.173435
26.140000 0.207973
26.150000 0.246047
26.160000 0.286313
26.170000 0.326946
26.180000 0.365744
26.190000 0.400301
26.200000 0.428241
26.210000 0.447471
26.220000 0.456423
26.260000 0.384912
26.270000 0.345880
26.280000 0.302642
26.290000 0.257688
26.300000 0.213322
26.310000 0.171476
26.320000 0.133589
26.330000 0.100563
26.330000 0.100563
29.740000 0.067787
29.750000 0.073045
29.760000 0.081485
29.770000 0.094579
29.780000 0.113823
29.790000 0.140294
29.800000 0.174046
29.810000 0.213549
29.820000 0.255409
29.830000 0.294620
29.840000 0.325438
29.850000 0.342711
29.860000 0.343255
29.870000 0.326773
29.880000 0.295962
29.890000 0.255756
29.900000 0.212010
29.910000 0.170090
29.920000 0.133795
29.930000 0.104521
29.940000 0.079543
29.950000 0.048703
29.960000 -0.003122
29.970000 -0.072585
29.980000 -0.107631
29.990000 -0.019319
30.000000 0.263991
30.010000 0.713113
30.020000 1.101980
30.030000 1.124870
30.040000 0.743994
30.050000 0.246289
30.060000 -0.097592
30.070000 -0.212134
30.080000 -0.158797
30.090000 -0.054031
30.100000 0.020157
27.110000 0.035606
27.120000 0.066729
27.130000 0.102011
27.140000 0.140604
27.150000 0.181192
27.160000 0.222021
27.170000 0.261005
27.180000 0.295875
27.190000 0.324391
27.200000 0.344566
27.210000 0.354884
27.220000 0.354476
27.230000 0.343224
27.240000 0.321782
27.250000 0.291507
27.260000 0.254299
27.270000 0.212405
27.280000 0.168183
27.290000 0.123879
27.300000 0.081446
27.310000 0.042419
27.320000 0.007845
27.330000 -0.021709
27.340000 -0.046108
27.350000 -0.065565
27.360000 -0.080539
27.370000 -0.091633
27.380000 -0.099509
27.390000 -0.104817
27.400000 -0.108147
27.410000 -0.110006
27.420000 -0.110804
27.430000 -0.110863
27.440000 -0.110421
27.450000 -0.109650
27.460000 -0.108669
27.470000 -0.107558
27.480000 -0.106289
27.490000 -0.104997
27.500000 -0.103706
27.510000 -0.102415
27.520000 -0.101123
27.530000 -0.099830
27.540000 -0.098537
27.550000 -0.097242
27.560000 -0.095947
27.570000 -0.094650
27.580000 -0.093352
27.590000 -0.092051
27.600000 -0.090749
27.610000 -0.089444
27.620000 -0.088135
27.630000 -0.086817
27.640000 -0.085478
27.650000 -0.084090
27.660000 -0.082589
27.670000 -0.080838
27.680000 -0.078577
27.690000 -0.075337
27.700000 -0.070364
27.710000 -0.062556
27.720000 -0.050499
27.730000 -0.032660
27.740000 -0.007779
27.750000 0.024555
27.760000 0.063298
27.770000 0.105563
27.780000 0.146709
27.790000 0.181047
27.800000 0.203097
27.810000 0.209007
27.820000 0.197654
27.830000 0.170990
27.840000 0.133496
27.850000 0.090953
27.860000 0.048999
27.870000 0.011935
27.880000 -0.018129
27.890000 -0.042621
27.900000 -0.069637
27.910000 -0.114336
27.920000 -0.181170
27.930000 -0.230788
27.940000 -0.178711
27.950000 0.057138
27.960000 0.481164
27.970000 0.914318
27.980000 1.039020
27.990000 0.736038
28.000000 0.236654
28.010000 -0.167186
28.020000 -0.351644
28.030000 -0.342649
28.040000 -0.241970
28.050000 -0.148697
28.060000 -0.097950
28.070000 -0.075601
28.080000 -0.062078
28.090000 -0.048222
28.100000 -0.031285
28.110000 -0.010406
28.120000 0.014837
28.130000 0.044607
28.140000 0.078753
28.150000 0.116734
28.160000 0.157572
28.170000 0.199849
28.180000 0.241758
28.190000 0.281212
28.200000 0.316009
28.210000 0.344030
28.220000 0.363450
28.230000 0.372934
28.240000 0.371791
28.250000 0.360054
28.260000 0.338481
28.270000 0.308476
28.280000 0.271936
28.290000 0.231055
28.300000 0.188107
28.310000 0.145243
28.320000 0.104325
28.330000 0.066807
28.340000 0.033686
28.350000 0.005499
28.360000 -0.017624
28.370000 -0.035886
28.380000 -0.049723
28.390000 -0.059714
28.400000 -0.066497
28.410000 -0.070704
28.420000 -0.072913
28.430000 -0.073625
28.440000 -0.073249
28.450000 -0.072110
28.460000 -0.070451
28.470000 -0.068449
28.480000 -0.066231
28.490000 -0.063880
28.500000 -0.061360
28.510000 -0.058827
28.520000 -0.056305
28.530000 -0.053797
28.540000 -0.051301
28.550000 -0.048817
28.560000 -0.046346
28.570000 -0.043888
28.580000 -0.041443
28.590000 -0.039011
28.600000 -0.036592
28.610000 -0.034186
28.620000 -0.031793
28.630000 -0.029413
28.640000 -0.027046
28.650000 -0.024688
28.660000 -0.022334
28.670000 -0.019967
28.680000 -0.017546
28.690000 -0.014989
28.700000 -0.012122
28.710000 -0.008627
28.720000 -0.003963
28.730000 0.002711
28.740000 0.012568
28.750000 0.027036
28.760000 0.047568
28.770000 0.075214
28.780000 0.110060
28.790000 0.150692
28.800000 0.193915
28.810000 0.234960
28.820000 0.268269
28.830000 0.288720
28.840000 0.292943
28.850000 0.280258
28.860000 0.252886
28.870000 0.215346
28.880000 0.173265
28.890000 0.132038
28.900000 0.095732
28.910000 0.066310
28.920000 0.042353
28.930000 0.016095
28.940000 -0.027100
28.950000 -0.092739
28.960000 -0.145894
28.970000 -0.106928
28.980000 0.106426
28.990000 0.512123
29.000000 0.963952
29.010000 1.157713
29.020000 0.917826
29.030000 0.427491
29.040000 -0.000973
29.050000 -0.213126
29.060000 -0.220897
29.070000 -0.124094
29.080000 -0.028363
29.090000 0.024621
29.100000 0.047583
29.110000 0.060989
29.120000 0.074593
29.130000 0.091296
29.140000 0.111990
29.150000 0.137106
29.160000 0.166804
29.170000 0.200909
29.180000 0.238837
29.190000 0.279542
29.200000 0.321522
29.210000 0.362874
29.220000 0.401422
29.230000 0.434895
29.240000 0.461139
29.250000 0.478346
29.260000 0.485254
29.270000 0.481297
29.280000 0.466673
29.290000 0.442330
29.300000 0.409857
29.310000 0.371311
29.320000 0.328999
29.330000 0.285249
29.340000 0.242200
29.350000 0.201645
29.360000 0.164926
29.370000 0.132899
29.380000 0.105952
29.390000 0.084078
29.400000 0.066960
29.410000 0.054073
29.420000 0.044787
29.430000 0.038441
29.440000 0.034404
29.450000 0.032118
29.460000 0.031113
29.470000 0.031012
29.480000 0.031527
29.490000 0.032446
29.500000 0.033617
29.510000 0.034938
29.520000 0.036358
29.530000 0.037879
29.540000 0.039372
29.550000 0.040836
29.560000 0.042271
29.570000 0.043678
29.580000 0.045056
29.590000 0.046406
29.600000 0.047728
29.610000 0.049022
29.620000 0.050288
29.630000 0.051526
29.640000 0.052736
29.650000 0.053919
29.660000 0.055075
29.670000 0.056207
29.680000 0.057321
29.690000 0.058433
29.700000 0.059578
29.710000 0.060838
29.720000 0.062379
29.730000 0.064515
32.450000 -0.037526
32.560000 -0.028319
32.570000 -0.026040
32.580000 -0.023773
32.590000 -0.021517
32.600000 -0.019272
32.610000 -0.017038
32.620000 -0.014816
32.630000 -0.012606
32.640000 -0.010408
32.650000 -0.008221
32.660000 -0.006047
32.670000 -0.003884
32.680000 -0.001732
32.690000 0.000413
32.700000 0.002559
32.710000 0.004729
32.720000 0.006978
32.730000 0.009422
32.740000 0.012296
32.750000 0.016025
32.760000 0.021321
32.770000 0.029246
32.780000 0.041204
32.790000 0.058770
32.800000 0.083313
32.810000 0.115406
32.820000 0.154187
32.830000 0.196904
32.840000 0.238942
32.850000 0.274511
32.860000 0.297927
32.870000 0.305110
32.880000 0.294774
32.890000 0.268835
32.900000 0.231853
32.910000 0.189757
32.920000 0.148321
32.930000 0.111912
32.940000 0.082591
32.950000 0.058625
32.960000 0.031145
32.970000 -0.015492
32.980000 -0.082998
32.990000 -0.125229
33.000000 -0.052790
33.010000 0.213134
33.020000 0.656168
33.030000 1.058935
33.040000 1.102826
33.050000 0.732496
33.060000 0.236710
33.070000 -0.100323
33.080000 -0.203024
33.090000 -0.140543
33.100000 -0.035332
33.110000 0.034199
33.120000 0.064664
33.130000 0.079260
33.140000 0.092156
33.150000 0.107842
33.160000 0.127552
33.170000 0.151814
33.180000 0.180847
33.190000 0.214505
33.200000 0.252188
33.210000 0.292781
33.220000 0.334651
33.230000 0.375724
33.240000 0.413630
33.250000 0.445913
33.260000 0.470295
33.270000 0.484927
33.280000 0.488621
33.290000 0.481000
33.300000 0.462550
33.310000 0.434568
33.320000 0.399001
33.330000 0.358224
33.340000 0.314766
33.350000 0.271061
33.360000 0.229223
33.370000 0.190902
33.380000 0.157207
33.390000 0.128712
33.400000 0.105518
33.410000 0.087349
33.420000 0.073680
33.430000 0.063838
33.440000 0.057113
33.450000 0.052821
33.460000 0.050355
33.470000 0.049209
33.480000 0.048982
33.490000 0.049371
33.500000 0.050155
33.510000 0.051180
33.520000 0.052345
33.530000 0.053680
33.540000 0.055015
33.550000 0.056324
33.560000 0.057605
33.570000 0.058859
33.580000 0.060086
33.590000 0.061287
33.600000 0.062460
33.610000 0.063608
33.620000 0.064728
33.630000 0.065822
33.640000 0.066890
33.650000 0.067932
33.660000 0.068949
33.670000 0.069942
33.680000 0.070918
33.690000 0.071892
33.700000 0.072901
33.710000 0.074031
33.720000 0.075463
33.730000 0.077548
33.740000 0.080898
33.750000 0.086482
33.760000 0.095652
33.770000 0.110032
33.780000 0.131180
33.790000 0.160005
33.800000 0.196063
33.810000 0.236968
33.820000 0.278276
33.830000 0.314073
33.840000 0.338278
33.850000 0.346283
33.860000 0.336340
33.870000 0.310129
33.880000 0.272254
33.890000 0.228884
33.900000 0.186087
33.910000 0.148443
33.920000 0.118044
33.930000 0.092802
33.940000 0.062779
33.950000 0.011720
33.960000 -0.057699
33.970000 -0.089025
33.980000 0.013918
33.990000 0.322682
34.000000 0.782168
34.010000 1.116470
34.020000 1.028469
34.030000 0.580902
34.040000 0.111719
34.050000 -0.153196
34.060000 -0.193127
34.070000 -0.105200
34.080000 -0.008482
34.090000 0.044605
34.100000 0.065982
34.110000 0.077749
34.120000 0.090073
34.130000 0.105801
34.140000 0.125805
34.150000 0.150503
34.160000 0.179992
34.170000 0.213967
34.180000 0.251627
34.190000 0.291644
34.200000 0.332181
34.210000 0.371000
34.220000 0.405645
34.230000 0.433673
34.240000 0.452926
34.250000 0.461791
34.260000 0.459396
34.270000 0.445731
34.280000 0.421656
34.290000 0.388792
34.300000 0.349330
34.310000 0.305775
34.320000 0.260672
34.330000 0.216355
34.340000 0.174758
34.350000 0.137298
34.360000 0.104835
34.370000 0.077708
34.380000 0.055821
34.390000 0.038757
34.400000 0.025898
34.410000 0.016534
34.420000 0.009953
34.430000 0.005501
34.440000 0.002616
34.450000 0.000843
34.460000 -0.000171
34.470000 -0.000684
34.480000 -0.000881
34.490000 -0.000885
34.500000 -0.000758
34.510000 -0.000504
34.520000 -0.000265
34.530000 -0.000042
34.540000 0.000167
34.550000 0.000362
34.560000 0.000543
34.570000 0.000710
34.580000 0.000864
34.590000 0.001005
34.600000 0.001134
34.610000 0.001250
34.620000 0.001355
34.630000 0.001449
34.640000 0.001534
34.650000 0.001614
34.660000 0.001700
34.670000 0.001820
34.680000 0.002040
34.690000 0.002504
34.700000 0.003498
34.710000 0.005543
34.720000 0.009493
34.730000 0.016595
34.740000 0.028428
35.220000 0.352167
35.230000 0.358095
35.240000 0.352939
35.250000 0.336926
35.260000 0.311079
35.270000 0.277099
35.280000 0.237167
35.290000 0.193707
35.300000 0.149136
35.310000 0.105641
35.320000 0.065016
35.330000 0.028560
35.340000 -0.002946
35.350000 -0.029203
35.360000 -0.050319
35.370000 -0.066696
35.380000 -0.078926
35.390000 -0.087687
35.400000 -0.093661
35.410000 -0.097482
35.420000 -0.099697
35.430000 -0.100755
35.440000 -0.101005
35.450000 -0.100710
35.460000 -0.100058
35.470000 -0.099178
35.480000 -0.098158
35.490000 -0.096971
35.500000 -0.095760
35.510000 -0.094547
35.520000 -0.093334
35.530000 -0.092119
35.540000 -0.090902
35.550000 -0.089683
35.560000 -0.088463
35.570000 -0.087241
35.580000 -0.086016
35.590000 -0.084789
35.600000 -0.083559
35.610000 -0.082327
35.620000 -0.081090
35.630000 -0.079848
35.640000 -0.078594
35.650000 -0.077313
35.660000 -0.075969
35.670000 -0.074479
35.680000 -0.072670
35.690000 -0.070213
35.700000 -0.066532
35.710000 -0.060718
35.720000 -0.051495
35.730000 -0.037309
35.740000 -0.016620
35.750000 0.011581
35.760000 0.047111
35.770000 0.088014
35.780000 0.130346
35.790000 0.168596
35.800000 0.196784
35.810000 0.209968
35.820000 0.205656
35.830000 0.184575
35.840000 0.150468
35.850000 0.109010
39.160000 0.136123
39.170000 0.176102
39.180000 0.216988
39.190000 0.256793
39.200000 0.293289
39.210000 0.324196
39.220000 0.347410
39.230000 0.361224
39.240000 0.364525
39.250000 0.356928
39.260000 0.338824
39.270000 0.311340
39.280000 0.276212
39.290000 0.235598
39.300000 0.191846
39.310000 0.147267
39.320000 0.103937
39.330000 0.063544
39.340000 0.027308
39.350000 -0.004044
39.360000 -0.030238
39.370000 -0.051381
39.380000 -0.067860
39.390000 -0.080242
39.400000 -0.089178
39.410000 -0.095330
39.420000 -0.099313
39.430000 -0.101664
39.440000 -0.102826
39.450000 -0.103150
39.460000 -0.102901
39.470000 -0.102272
39.480000 -0.101397
39.490000 -0.100369
39.500000 -0.099150
39.510000 -0.097904
39.520000 -0.096657
39.530000 -0.095409
39.540000 -0.094159
39.550000 -0.092908
39.560000 -0.091656
39.570000 -0.090402
39.580000 -0.089146
39.590000 -0.087887
39.600000 -0.086627
39.610000 -0.085364
39.620000 -0.084098
39.630000 -0.082830
36.640000 -0.020683
36.650000 -0.018373
36.660000 -0.016038
36.670000 -0.013627
36.680000 -0.011024
36.690000 -0.008005
36.700000 -0.004156
36.710000 0.001207
36.720000 0.009106
36.730000 0.020902
36.740000 0.038137
36.750000 0.062185
36.760000 0.093704
36.770000 0.132012
36.780000 0.174620
36.790000 0.217199
36.800000 0.254162
36.810000 0.279832
36.820000 0.289892
36.830000 0.282596
36.840000 0.259308
36.850000 0.224113
36.860000 0.182684
36.870000 0.140826
36.880000 0.103187
36.890000 0.072364
36.900000 0.047745
36.910000 0.022653
36.920000 -0.017458
36.930000 -0.081288
36.940000 -0.138419
36.950000 -0.109135
36.960000 0.093820
36.970000 0.494439
40.320000 0.198504
40.330000 0.155566
40.340000 0.114578
40.350000 0.077023
40.360000 0.043909
40.370000 0.015777
40.380000 -0.007251
40.390000 -0.025390
40.400000 -0.039092
40.410000 -0.048951
40.420000 -0.055618
40.430000 -0.059731
40.440000 -0.061874
40.450000 -0.062548
40.460000 -0.062161
40.470000 -0.061035
40.480000 -0.059408
40.490000 -0.057454
40.500000 -0.055294
40.510000 -0.053010
40.520000 -0.050570
40.530000 -0.048118
40.540000 -0.045679
40.550000 -0.043251
40.560000 -0.040836
40.570000 -0.038432
40.580000 -0.036041
40.590000 -0.033663
40.600000 -0.031297
40.610000 -0.028944
40.620000 -0.026604
40.630000 -0.024276
40.640000 -0.021961
40.650000 -0.019659
40.660000 -0.017369
40.670000 -0.015086
40.680000 -0.012803
40.690000 -0.010498
40.700000 -0.008118
40.710000 -0.005556
40.720000 -0.002595
40.730000 0.001156
40.740000 0.006344
38.060000 -0.020164
38.070000 0.033752
38.080000 0.056016
38.090000 0.068083
38.100000 0.080298
38.110000 0.095688
38.120000 0.115171
38.130000 0.139181
38.140000 0.167868
38.150000 0.201019
38.160000 0.237978
38.170000 0.277601
38.180000 0.318260
38.190000 0.357923
38.200000 0.394295
38.210000 0.425018
38.220000 0.447914
38.230000 0.461220
38.240000 0.463802
38.250000 0.455286
38.260000 0.436118
38.270000 0.407509
38.280000 0.371300
38.290000 0.329747
38.300000 0.285283
38.310000 0.240275
38.320000 0.196813
38.330000 0.156565
38.340000 0.120697
38.350000 0.089862
38.360000 0.064251
38.370000 0.043678
38.380000 0.027687
38.390000 0.015660
38.400000 0.006916
38.410000 0.000783
38.420000 -0.003353
38.430000 -0.006015
38.440000 -0.007625
38.450000 -0.008513
38.460000 -0.008921
38.470000 -0.009022
38.480000 -0.008936
38.490000 -0.008721
38.500000 -0.008374
38.510000 -0.008044
38.520000 -0.007731
38.530000 -0.007433
38.540000 -0.007150
38.550000 -0.006883
38.560000 -0.006630
38.570000 -0.006391
38.580000 -0.006166
38.590000 -0.005955
38.600000 -0.005757
38.610000 -0.005572
38.620000 -0.005399
38.630000 -0.005237
38.640000 -0.005083
38.650000 -0.004930
38.660000 -0.004761
38.670000 -0.004534
38.680000 -0.004154
38.690000 -0.003431
38.700000 -0.002004
38.710000 0.000746
38.720000 0.005779
38.730000 0.014416
38.740000 0.028226
38.750000 0.048701
38.760000 0.076718
38.770000 0.111881
38.780000 0.151973
38.790000 0.192822
38.800000 0.228807
38.810000 0.254023
38.820000 0.263792
38.830000 0.256008
38.840000 0.231792
38.850000 0.195167
38.860000 0.151911
38.870000 0.108014
38.880000 0.068310
38.890000 0.035507
38.900000 0.008977
38.910000 -0.018269
38.920000 -0.061288
38.930000 -0.127951
38.940000 -0.183851
38.950000 -0.144712
38.960000 0.076740
38.970000 0.492747
38.980000 0.928034
38.990000 1.055780
39.000000 0.751335
39.010000 0.250444
39.020000 -0.147253
39.030000 -0.320414
39.040000 -0.302066
39.050000 -0.200300
39.060000 -0.113014
39.070000 -0.068841
39.080000 -0.050353
39.090000 -0.038683
39.100000 -0.025887
39.110000 -0.009709
39.120000 0.010605
39.130000 0.035431
39.140000 0.064868
39.150000 0.098661
42.160000 0.145054
42.170000 0.172361
42.180000 0.204284
42.190000 0.240269
42.200000 0.279261
42.210000 0.319701
42.220000 0.359584
42.230000 0.396597
43.970000 -0.184552
43.980000 0.019910
43.990000 0.423454
44.000000 0.871726
47.410000 -0.084730
44.420000 -0.052867
44.430000 -0.058091
44.440000 -0.061067
44.450000 -0.062342
44.460000 -0.062375
44.470000 -0.061532
44.480000 -0.060088
44.490000 -0.058249
44.500000 -0.056156
44.510000 -0.053909
44.520000 -0.051556
44.530000 -0.049094
44.540000 -0.046645
44.550000 -0.044207
44.560000 -0.041782
44.570000 -0.039370
44.580000 -0.036970
44.590000 -0.034582
44.600000 -0.032207
44.610000 -0.029845
44.620000 -0.027495
44.630000 -0.025159
44.640000 -0.022836
44.650000 -0.020525
44.660000 -0.018226
44.670000 -0.015938
44.680000 -0.013651
44.690000 -0.011350
44.700000 -0.008990
44.710000 -0.006481
44.720000 -0.003632
44.730000 -0.000095
44.740000 0.004726
44.750000 0.011749
44.760000 0.022235
44.770000 0.037690
44.780000 0.059577
44.790000 0.088822
44.800000 0.125209
44.810000 0.166843
44.820000 0.209953
44.830000 0.249281
44.840000 0.279067
44.850000 0.294443
44.860000 0.292757
44.870000 0.274355
44.880000 0.242498
44.890000 0.202452
44.900000 0.160095
44.910000 0.120551
44.920000 0.087187
44.930000 0.060715
44.940000 0.037063
44.950000 0.004204
44.960000 -0.051800
44.970000 -0.118523
44.980000 -0.132307
44.990000 -0.002340
45.000000 0.329191
45.010000 0.793422
45.020000 1.121370
45.030000 1.034194
45.040000 0.592115
45.050000 0.117681
45.060000 -0.163723
45.070000 -0.221148
45.080000 -0.140221
45.090000 -0.037736
45.100000 0.024604
45.110000 0.051646
45.120000 0.065691
45.130000 0.078901
45.140000 0.095026
45.150000 0.115142
45.160000 0.139734
45.170000 0.168999
45.180000 0.202791
45.190000 0.240528
45.200000 0.281148
45.210000 0.323100
45.220000 0.364407
45.230000 0.402806
45.240000 0.435936
45.250000 0.461571
45.260000 0.477867
45.270000 0.483572
45.280000 0.478184
45.290000 0.462013
45.300000 0.436152
45.310000 0.402349
45.320000 0.362808
45.330000 0.319949
45.340000 0.276162
45.350000 0.233596
45.360000 0.193995
45.370000 0.158610
45.380000 0.128176
45.390000 0.102955
45.400000 0.082815
45.410000 0.067339
45.420000 0.055928
45.430000 0.047906
45.440000 0.042594
45.450000 0.039368
45.460000 0.037687
45.470000 0.037111
45.480000 0.037296
45.490000 0.037986
45.500000 0.038997
45.510000 0.040202
45.520000 0.041514
45.530000 0.042962
45.540000 0.044404
45.550000 0.045818
45.560000 0.047203
45.570000 0.048561
45.580000 0.049891
45.590000 0.051193
45.600000 0.052467
45.610000 0.053714
45.620000 0.054933
47.410000 -0.084730
